2500_1
2500_10
2500_100
2500_1000
2500_1001
2500_1002
2500_1003
2500_1004
2500_1005
2500_1006
2500_1007
2500_1008
2500_1009
2500_101
2500_1010
2500_1011
2500_1012
2500_1013
2500_1014
2500_1015
2500_1016
2500_1017
2500_1018
2500_1019
2500_102
2500_1020
2500_1021
2500_1022
2500_1023
2500_1024
2500_1025
2500_1026
2500_1027
2500_1028
2500_1029
2500_103
2500_1030
2500_1031
2500_1032
2500_1033
2500_1034
2500_1035
2500_1036
2500_1037
2500_1038
2500_1039
2500_104
2500_1040
2500_1041
2500_1042
2500_1043
2500_1044
2500_1045
2500_1046
2500_1047
2500_1048
2500_1049
2500_105
2500_1050
2500_1051
2500_1052
2500_1053
2500_1054
2500_1055
2500_1056
2500_1057
2500_1058
2500_1059
2500_106
2500_1060
2500_1061
2500_1062
2500_1063
2500_1064
2500_1065
2500_1066
2500_1067
2500_1068
2500_1069
2500_107
2500_1070
2500_1071
2500_1072
2500_1073
2500_1074
2500_1075
2500_1076
2500_1077
2500_1078
2500_1079
2500_108
2500_1080
2500_1081
2500_1082
2500_1083
2500_1084
2500_1085
2500_1086
2500_1087
2500_1088
2500_1089
2500_109
2500_1090
2500_1091
2500_1092
2500_1093
2500_1094
2500_1095
2500_1096
2500_1097
2500_1098
2500_1099
2500_11
2500_110
2500_1100
2500_1101
2500_1102
2500_1103
2500_1104
2500_1105
2500_1106
2500_1107
2500_1108
2500_1109
2500_111
2500_1110
2500_1111
2500_1112
2500_1113
2500_1114
2500_1115
2500_1116
2500_1117
2500_1118
2500_1119
2500_112
2500_1120
2500_1121
2500_1122
2500_1123
2500_1124
2500_1125
2500_1126
2500_1127
2500_1128
2500_1129
2500_113
2500_1130
2500_1131
2500_1132
2500_1133
2500_1134
2500_1135
2500_1136
2500_1137
2500_1138
2500_1139
2500_114
2500_1140
2500_1141
2500_1142
2500_1143
2500_1144
2500_1145
2500_1146
2500_1147
2500_1148
2500_1149
2500_115
2500_1150
2500_1151
2500_1152
2500_1153
2500_1154
2500_1155
2500_1156
2500_1157
2500_1158
2500_1159
2500_116
2500_1160
2500_1161
2500_1162
2500_1163
2500_1164
2500_1165
2500_1166
2500_1167
2500_1168
2500_1169
2500_117
2500_1170
2500_1171
2500_1172
2500_1173
2500_1174
2500_1175
2500_1176
2500_1177
2500_1178
2500_1179
2500_118
2500_1180
2500_1181
2500_1182
2500_1183
2500_1184
2500_1185
2500_1186
2500_1187
2500_1188
2500_1189
2500_119
2500_1190
2500_1191
2500_1192
2500_1193
2500_1194
2500_1195
2500_1196
2500_1197
2500_1198
2500_1199
2500_12
2500_120
2500_1200
2500_1201
2500_1202
2500_1203
2500_1204
2500_1205
2500_1206
2500_1207
2500_1208
2500_1209
2500_121
2500_1210
2500_1211
2500_1212
2500_1213
2500_1214
2500_1215
2500_1216
2500_1217
2500_1218
2500_1219
2500_122
2500_1220
2500_1221
2500_1222
2500_1223
2500_1224
2500_1225
2500_1226
2500_1227
2500_1228
2500_1229
2500_123
2500_1230
2500_1231
2500_1232
2500_1233
2500_1234
2500_1235
2500_1236
2500_1237
2500_1238
2500_1239
2500_124
2500_1240
2500_1241
2500_1242
2500_1243
2500_1244
2500_1245
2500_1246
2500_1247
2500_1248
2500_1249
2500_125
2500_1250
2500_1251
2500_1252
2500_1253
2500_1254
2500_1255
2500_1256
2500_1257
2500_1258
2500_1259
2500_126
2500_1260
2500_1261
2500_1262
2500_1263
2500_1264
2500_1265
2500_1266
2500_1267
2500_1268
2500_1269
2500_127
2500_1270
2500_1271
2500_1272
2500_1273
2500_1274
2500_1275
2500_1276
2500_1277
2500_1278
2500_1279
2500_128
2500_1280
2500_1281
2500_1282
2500_1283
2500_1284
2500_1285
2500_1286
2500_1287
2500_1288
2500_1289
2500_129
2500_1290
2500_1291
2500_1292
2500_1293
2500_1294
2500_1295
2500_1296
2500_1297
2500_1298
2500_1299
2500_13
2500_130
2500_1300
2500_1301
2500_1302
2500_1303
2500_1304
2500_1305
2500_1306
2500_1307
2500_1308
2500_1309
2500_131
2500_1310
2500_1311
2500_1312
2500_1313
2500_1314
2500_1315
2500_1316
2500_1317
2500_1318
2500_1319
2500_132
2500_1320
2500_1321
2500_1322
2500_1323
2500_1324
2500_1325
2500_1326
2500_1327
2500_1328
2500_1329
2500_133
2500_1330
2500_1331
2500_1332
2500_1333
2500_1334
2500_1335
2500_1336
2500_1337
2500_1338
2500_1339
2500_134
2500_1340
2500_1341
2500_1342
2500_1343
2500_1344
2500_1345
2500_1346
2500_1347
2500_1348
2500_1349
2500_135
2500_1350
2500_1351
2500_1352
2500_1353
2500_1354
2500_1355
2500_1356
2500_1357
2500_1358
2500_1359
2500_136
2500_1360
2500_1361
2500_1362
2500_1363
2500_1364
2500_1365
2500_1366
2500_1367
2500_1368
2500_1369
2500_137
2500_1370
2500_1371
2500_1372
2500_1373
2500_1374
2500_1375
2500_1376
2500_1377
2500_1378
2500_1379
2500_138
2500_1380
2500_1381
2500_1382
2500_1383
2500_1384
2500_1385
2500_1386
2500_1387
2500_1388
2500_1389
2500_139
2500_1390
2500_1391
2500_1392
2500_1393
2500_1394
2500_1395
2500_1396
2500_1397
2500_1398
2500_1399
2500_14
2500_140
2500_1400
2500_1401
2500_1402
2500_1403
2500_1404
2500_1405
2500_1406
2500_1407
2500_1408
2500_1409
2500_141
2500_1410
2500_1411
2500_1412
2500_1413
2500_1414
2500_1415
2500_1416
2500_1417
2500_1418
2500_1419
2500_142
2500_1420
2500_1421
2500_1422
2500_1423
2500_1424
2500_1425
2500_1426
2500_1427
2500_1428
2500_1429
2500_143
2500_1430
2500_1431
2500_1432
2500_1433
2500_1434
2500_1435
2500_1436
2500_1437
2500_1438
2500_1439
2500_144
2500_1440
2500_1441
2500_1442
2500_1443
2500_1444
2500_1445
2500_1446
2500_1447
2500_1448
2500_1449
2500_145
2500_1450
2500_1451
2500_1452
2500_1453
2500_1454
2500_1455
2500_1456
2500_1457
2500_1458
2500_1459
2500_146
2500_1460
2500_1461
2500_1462
2500_1463
2500_1464
2500_1465
2500_1466
2500_1467
2500_1468
2500_1469
2500_147
2500_1470
2500_1471
2500_1472
2500_1473
2500_1474
2500_1475
2500_1476
2500_1477
2500_1478
2500_1479
2500_148
2500_1480
2500_1481
2500_1482
2500_1483
2500_1484
2500_1485
2500_1486
2500_1487
2500_1488
2500_1489
2500_149
2500_1490
2500_1491
2500_1492
2500_1493
2500_1494
2500_1495
2500_1496
2500_1497
2500_1498
2500_1499
2500_15
2500_150
2500_1500
2500_1501
2500_1502
2500_1503
2500_1504
2500_1505
2500_1506
2500_1507
2500_1508
2500_1509
2500_151
2500_1510
2500_1511
2500_1512
2500_1513
2500_1514
2500_1515
2500_1516
2500_1517
2500_1518
2500_1519
2500_152
2500_1520
2500_1521
2500_1522
2500_1523
2500_1524
2500_1525
2500_1526
2500_1527
2500_1528
2500_1529
2500_153
2500_1530
2500_1531
2500_1532
2500_1533
2500_1534
2500_1535
2500_1536
2500_1537
2500_1538
2500_1539
2500_154
2500_1540
2500_1541
2500_1542
2500_1543
2500_1544
2500_1545
2500_1546
2500_1547
2500_1548
2500_1549
2500_155
2500_1550
2500_1551
2500_1552
2500_1553
2500_1554
2500_1555
2500_1556
2500_1557
2500_1558
2500_1559
2500_156
2500_1560
2500_1561
2500_1562
2500_1563
2500_1564
2500_1565
2500_1566
2500_1567
2500_1568
2500_1569
2500_157
2500_1570
2500_1571
2500_1572
2500_1573
2500_1574
2500_1575
2500_1576
2500_1577
2500_1578
2500_1579
2500_158
2500_1580
2500_1581
2500_1582
2500_1583
2500_1584
2500_1585
2500_1586
2500_1587
2500_1588
2500_1589
2500_159
2500_1590
2500_1591
2500_1592
2500_1593
2500_1594
2500_1595
2500_1596
2500_1597
2500_1598
2500_1599
2500_16
2500_160
2500_1600
2500_1601
2500_1602
2500_1603
2500_1604
2500_1605
2500_1606
2500_1607
2500_1608
2500_1609
2500_161
2500_1610
2500_1611
2500_1612
2500_1613
2500_1614
2500_1615
2500_1616
2500_1617
2500_1618
2500_1619
2500_162
2500_1620
2500_1621
2500_1622
2500_1623
2500_1624
2500_1625
2500_1626
2500_1627
2500_1628
2500_1629
2500_163
2500_1630
2500_1631
2500_1632
2500_1633
2500_1634
2500_1635
2500_1636
2500_1637
2500_1638
2500_1639
2500_164
2500_1640
2500_1641
2500_1642
2500_1643
2500_1644
2500_1645
2500_1646
2500_1647
2500_1648
2500_1649
2500_165
2500_1650
2500_1651
2500_1652
2500_1653
2500_1654
2500_1655
2500_1656
2500_1657
2500_1658
2500_1659
2500_166
2500_1660
2500_1661
2500_1662
2500_1663
2500_1664
2500_1665
2500_1666
2500_1667
2500_1668
2500_1669
2500_167
2500_1670
2500_1671
2500_1672
2500_1673
2500_1674
2500_1675
2500_1676
2500_1677
2500_1678
2500_1679
2500_168
2500_1680
2500_1681
2500_1682
2500_1683
2500_1684
2500_1685
2500_1686
2500_1687
2500_1688
2500_1689
2500_169
2500_1690
2500_1691
2500_1692
2500_1693
2500_1694
2500_1695
2500_1696
2500_1697
2500_1698
2500_1699
2500_17
2500_170
2500_1700
2500_1701
2500_1702
2500_1703
2500_1704
2500_1705
2500_1706
2500_1707
2500_1708
2500_1709
2500_171
2500_1710
2500_1711
2500_1712
2500_1713
2500_1714
2500_1715
2500_1716
2500_1717
2500_1718
2500_1719
2500_172
2500_1720
2500_1721
2500_1722
2500_1723
2500_1724
2500_1725
2500_1726
2500_1727
2500_1728
2500_1729
2500_173
2500_1730
2500_1731
2500_1732
2500_1733
2500_1734
2500_1735
2500_1736
2500_1737
2500_1738
2500_1739
2500_174
2500_1740
2500_1741
2500_1742
2500_1743
2500_1744
2500_1745
2500_1746
2500_1747
2500_1748
2500_1749
2500_175
2500_1750
2500_1751
2500_1752
2500_1753
2500_1754
2500_1755
2500_1756
2500_1757
2500_1758
2500_1759
2500_176
2500_1760
2500_1761
2500_1762
2500_1763
2500_1764
2500_1765
2500_1766
2500_1767
2500_1768
2500_1769
2500_177
2500_1770
2500_1771
2500_1772
2500_1773
2500_1774
2500_1775
2500_1776
2500_1777
2500_1778
2500_1779
2500_178
2500_1780
2500_1781
2500_1782
2500_1783
2500_1784
2500_1785
2500_1786
2500_1787
2500_1788
2500_1789
2500_179
2500_1790
2500_1791
2500_1792
2500_1793
2500_1794
2500_1795
2500_1796
2500_1797
2500_1798
2500_1799
2500_18
2500_180
2500_1800
2500_1801
2500_1802
2500_1803
2500_1804
2500_1805
2500_1806
2500_1807
2500_1808
2500_1809
2500_181
2500_1810
2500_1811
2500_1812
2500_1813
2500_1814
2500_1815
2500_1816
2500_1817
2500_1818
2500_1819
2500_182
2500_1820
2500_1821
2500_1822
2500_1823
2500_1824
2500_1825
2500_1826
2500_1827
2500_1828
2500_1829
2500_183
2500_1830
2500_1831
2500_1832
2500_1833
2500_1834
2500_1835
2500_1836
2500_1837
2500_1838
2500_1839
2500_184
2500_1840
2500_1841
2500_1842
2500_1843
2500_1844
2500_1845
2500_1846
2500_1847
2500_1848
2500_1849
2500_185
2500_1850
2500_1851
2500_1852
2500_1853
2500_1854
2500_1855
2500_1856
2500_1857
2500_1858
2500_1859
2500_186
2500_1860
2500_1861
2500_1862
2500_1863
2500_1864
2500_1865
2500_1866
2500_1867
2500_1868
2500_1869
2500_187
2500_1870
2500_1871
2500_1872
2500_1873
2500_1874
2500_1875
2500_1876
2500_1877
2500_1878
2500_1879
2500_188
2500_1880
2500_1881
2500_1882
2500_1883
2500_1884
2500_1885
2500_1886
2500_1887
2500_1888
2500_1889
2500_189
2500_1890
2500_1891
2500_1892
2500_1893
2500_1894
2500_1895
2500_1896
2500_1897
2500_1898
2500_1899
